hour,temperature,consumption
0,27,1.2
1,26,1.1
2,26,1.0
3,25,0.9
4,25,1.0
5,26,1.2
6,27,1.5
7,28,1.8
8,29,2.0
9,30,2.3
10,31,2.5
11,32,2.8
12,33,3.0
13,34,3.1
14,34,3.0
15,33,2.9
16,32,2.7
17,31,2.8
18,30,3.2
19,29,3.5
20,28,3.3
21,28,2.9
22,27,2.4
23,27,2.0